Theta [deg],dB(GainPhi) [] - Freq='0.7GHz' Phi='0deg',dB(GainPhi) [] - Freq='0.7GHz' Phi='90deg'
-180,-19.37010404,-36.68845967
-179,-19.36586147,-36.96028419
-178,-19.39754354,-37.28753885
-177,-19.46543978,-37.6718217
-176,-19.5700693,-38.11539484
-175,-19.71219419,-38.62130173
-174,-19.8928395,-39.19352905
-173,-20.11332102,-39.83722754
-172,-20.37528277,-40.55901194
-171,-20.68074689,-41.36736639
-170,-21.03217943,-42.27318663
-169,-21.43257729,-43.29048306
-168,-21.88558342,-44.4372155
-167,-22.39564076,-45.73601576
-166,-22.96819984,-47.2137853
-165,-23.61000187,-48.89647385
-164,-24.32946995,-50.78619351
-163,-25.13725582,-52.78088734
-162,-26.04701193,-54.47085551
-161,-27.07648405,-55.0526433
-160,-28.24903007,-54.2128256
-159,-29.59557373,-52.6559379
-158,-31.1563986,-51.03682888
-157,-32.97935097,-49.58905587
-156,-35.09835584,-48.34891046
-155,-37.42410604,-47.29712881
-154,-39.36792089,-46.40495036
-153,-39.63856708,-45.64611747
-152,-38.1140508,-44.99906837
-151,-36.08490418,-44.44659078
-150,-34.2314468,-43.97498286
-149,-32.67374572,-43.57326062
-148,-31.38330515,-43.23252194
-147,-30.31199537,-42.94546147
-146,-29.41835203,-42.70600609
-145,-28.67035296,-42.50904082
-144,-28.0437554,-42.35020141
-143,-27.52010372,-42.22571561
-142,-27.08515176,-42.1322803
-141,-26.72772013,-42.0669651
-140,-26.43888494,-42.02713557
-139,-26.21139969,-42.01039122
-138,-26.03927767,-42.01451481
-137,-25.91748447,-42.03743012
-136,-25.84170646,-42.07716651
-135,-25.80817158,-42.13182887
-134,-25.81350637,-42.19957207
-133,-25.85461766,-42.27857928
-132,-25.92859073,-42.36704405
-131,-26.03259785,-42.46315603
-130,-26.16381309,-42.56509066
-129,-26.31933027,-42.67100302
-128,-26.4960827,-42.77902666
-127,-26.69076466,-42.88727766
-126,-26.89975668,-42.99386466
-125,-27.11905891,-43.09690509
-124,-27.34424023,-43.19454769
-123,-27.57041356,-43.28500105
-122,-27.79225137,-43.36656707
-121,-28.00405656,-43.43767801
-120,-28.19990275,-43.49693493
-119,-28.3738515,-43.54314497
-118,-28.52024175,-43.57535461
-117,-28.63402913,-43.59287609
-116,-28.71113385,-43.59530476
-115,-28.74874214,-43.58252551
-114,-28.74550531,-43.55470777
-113,-28.70159536,-43.51228943
-112,-28.61860538,-43.45595118
-111,-28.49931546,-43.38658329
-110,-28.34737094,-43.30524778
-109,-28.16693008,-43.21313847
-108,-27.9623333,-43.11154171
-107,-27.73782984,-43.00179973
-106,-27.49737864,-42.88527833
-105,-27.24452399,-42.76333969
-104,-26.98233551,-42.63732074
-103,-26.71339744,-42.50851706
-102,-26.43983175,-42.37817177
-101,-26.16334133,-42.24746891
-100,-25.88526309,-42.11753056
-99,-25.60662342,-41.98941694
-98,-25.32819152,-41.86412888
-97,-25.05052777,-41.74261202
-96,-24.77402607,-41.62576221
-95,-24.49894969,-41.51443182
-94,-24.22546106,-41.40943656
-93,-23.95364603,-41.31156256
-92,-23.68353337,-41.22157371
-91,-23.41511024,-41.14021894
-90,-23.1483346,-41.0682396
-89,-22.88314496,-41.00637672
-88,-22.61946844,-40.95537825
-87,-22.35722742,-40.91600624
-86,-22.09634532,-40.88904396
-85,-21.83675192,-40.87530298
-84,-21.57838835,-40.87563009
-83,-21.32121195,-40.8909142
-82,-21.06520106,-40.92209295
-81,-20.81035983,-40.97015904
-80,-20.55672271,-41.03616599
-79,-20.30435882,-41.121233
-78,-20.05337562,-41.22654839
-77,-19.80392206,-41.35337083
-76,-19.55619059,-41.50302695
-75,-19.31041806,-41.67690362
-74,-19.06688513,-41.87643169
-73,-18.82591413,-42.10305691
-72,-18.58786497,-42.35819092
-71,-18.35312928,-42.6431322
-70,-18.12212235,-42.95894106
-69,-17.89527307,-43.30624567
-68,-17.67301169,-43.68494558
-67,-17.45575532,-44.0937661
-66,-17.24389122,-44.5296044
-65,-17.03775776,-44.98660495
-64,-16.8376229,-45.45493096
-63,-16.64366029,-45.91930766
-62,-16.45592274,-46.35767411
-61,-16.27431314,-46.74074081
-60,-16.09855308,-47.03376395
-59,-15.9281495,-47.20180771
-58,-15.76236022,-47.21824373
-57,-15.60015996,-47.07330953
-56,-15.440209,-46.77780718
-55,-15.28082799,-46.3594434
-54,-15.1199835,-45.85428763
-53,-14.95529008,-45.29826585
-52,-14.78403569,-44.72188392
-51,-14.60323726,-44.14844334
-50,-14.40973219,-43.59448148
-49,-14.20030819,-43.07112383
-48,-13.97186881,-42.58554809
-47,-13.72162469,-42.14222209
-46,-13.44729309,-41.743839
-45,-13.14728187,-41.39198298
-44,-12.82083217,-41.08758822
-43,-12.46809752,-40.83125083
-42,-12.09014624,-40.62344093
-41,-11.68888697,-40.464649
-40,-11.26693009,-40.35549062
-39,-10.82740696,-40.29678625
-38,-10.3737729,-40.28962766
-37,-9.909617573,-40.33543931
-36,-9.438500571,-40.4360411
-35,-8.963822194,-40.59371723
-34,-8.488732317,-40.81129522
-33,-8.016074878,-41.0922381
-32,-7.548362304,-41.44075011
-31,-7.087772952,-41.86189227
-30,-6.63616473,-42.36169204
-29,-6.195098987,-42.94720619
-28,-5.765869978,-43.62643577
-27,-5.349536448,-44.40785521
-26,-4.94695298,-45.29900146
-25,-4.558799617,-46.30285531
-24,-4.185608926,-47.40924301
-23,-3.827790132,-48.57602496
-22,-3.485650241,-49.69464027
-21,-3.159412283,-50.5541651
-20,-2.849230887,-50.88315631
-19,-2.555205465,-50.54636411
-18,-2.277391296,-49.68666538
-17,-2.01580878,-48.57611227
-16,-1.770451131,-47.42268764
-15,-1.541290736,-46.3325503
-14,-1.328284391,-45.3466605
-13,-1.13137758,-44.47477071
-12,-0.950507976,-43.71382595
-11,-0.785608264,-43.0563401
-10,-0.636608422,-42.49390382
-9,-0.503437539,-42.01853398
-8,-0.386025256,-41.62310019
-7,-0.284302888,-41.30136599
-6,-0.1982043,-41.04787344
-5,-0.12766655,-40.85776489
-4,-0.072630379,-40.72657621
-3,-0.033040532,-40.65000933
-2,-0.008845976,-40.62367961
-1,0,-40.64282912
0,-0.006460234,-40.7019969
1,-0.028188574,-40.79464388
2,-0.065151038,-40.91274592
3,-0.117317525,-41.0463983
4,-0.1846615,-41.18352314
5,-0.267159568,-41.30983318
6,-0.364790934,-41.40925856
7,-0.477536722,-41.46503518
8,-0.605379128,-41.46151202
9,-0.748300367,-41.38643181
10,-0.906281375,-41.2330782
11,-1.079300213,-41.00151887
12,-1.267330117,-40.6984279
13,-1.470337114,-40.33556016
14,-1.688277144,-39.92749062
15,-1.921092567,-39.48938346
16,-2.168707972,-39.03532168
17,-2.431025168,-38.57736148
18,-2.70791721,-38.12520651
19,-2.999221342,-37.68629155
20,-3.304730697,-37.26607701
21,-3.624184614,-36.86841411
22,-3.95725743,-36.49590037
23,-4.303545649,-36.15018838
24,-4.662553427,-35.83223722
25,-5.033676403,-35.54250899
26,-5.416184043,-35.28111834
27,-5.809200853,-35.04794415
28,-6.211687084,-34.84271192
29,-6.622419906,-34.66505393
30,-7.039976491,-34.51455281
31,-7.462720933,-34.39077283
32,-7.888797521,-34.29328229
33,-8.316133417,-34.22166929
34,-8.742454092,-34.17555273
35,-9.165314956,-34.15458989
36,-9.582151985,-34.15848154
37,-9.990352896,-34.18697514
38,-10.38734816,-34.23986693
39,-10.77071818,-34.31700296
40,-11.13830948,-34.41827968
41,-11.48834959,-34.54364395
42,-11.8195482,-34.69309294
43,-12.13117209,-34.86667386
44,-12.42308354,-35.0644837
45,-12.69573643,-35.28666902
46,-12.95013033,-35.53342589
47,-13.18772817,-35.80500006
48,-13.41034818,-36.10168745
49,-13.62004248,-36.42383493
50,-13.81897491,-36.77184164
51,-14.00930848,-37.14616079
52,-14.1931096,-37.54730219
53,-14.37227283,-37.97583554
54,-14.54846714,-38.43239479
55,-14.72310218,-38.91768367
56,-14.89731217,-39.43248283
57,-15.07195419,-39.97765881
58,-15.24761784,-40.55417558
59,-15.42464351,-41.16310893
60,-15.60314719,-41.80566486
61,-15.78304976,-42.48320259
62,-15.96410966,-43.19726347
63,-16.1459578,-43.94960676
64,-16.32813356,-44.7422531
65,-16.51012135,-45.5775356
66,-16.6913864,-46.45815582
67,-16.8714091,-47.3872365
68,-17.04971653,-48.36835071
69,-17.2259103,-49.40548059
70,-17.39968955,-50.50280379
71,-17.57086831,-51.66408749
72,-17.73938664,-52.89122418
73,-17.90531534,-54.18094799
74,-18.06885439,-55.51787988
75,-18.2303257,-56.86097983
76,-18.39016101,-58.12162384
77,-18.54888619,-59.14369555
78,-18.70710302,-59.72819305
79,-18.86546992,-59.74577188
80,-19.02468268,-59.24753292
81,-19.1854562,-58.41730964
82,-19.34850812,-57.43782461
83,-19.51454476,-56.42644239
84,-19.68424976,-55.44211194
85,-19.85827556,-54.50919522
86,-20.03723758,-53.63495997
87,-20.22171101,-52.81914742
88,-20.41222987,-52.05862002
89,-20.60928815,-51.34947076
90,-20.81334254,-50.68791448
91,-21.02481664,-50.07061722
92,-21.24410602,-49.4947764
93,-21.47158405,-48.95809807
94,-21.70760806,-48.4587381
95,-21.9525254,-47.99523678
96,-22.20667915,-47.56645845
97,-22.47041281,-47.17153963
98,-22.74407362,-46.80984572
99,-23.02801359,-46.48093428
100,-23.32258735,-46.18452295
101,-23.62814563,-45.92045926
102,-23.94502272,-45.68868982
103,-24.27351562,-45.48922605
104,-24.61385225,-45.32210299
105,-24.96614483,-45.18732732
106,-25.33032371,-45.08480935
107,-25.70604572,-45.01427264
108,-26.09256986,-44.9751331
109,-26.4885927,-44.96633758
110,-26.89203628,-44.98615092
111,-27.29978522,-45.0318807
112,-27.70737894,-45.09953408
113,-28.10868348,-45.18341403
114,-28.49559972,-45.27569078
115,-28.85791068,-45.3660333
116,-29.18342217,-45.44145763
117,-29.45857932,-45.48662429
118,-29.66969544,-45.48484437
119,-29.80475811,-45.41994154
120,-29.8554905,-45.27879705
121,-29.81907603,-45.05395053
122,-29.69892043,-44.74533085
123,-29.50414302,-44.36038199
124,-29.24800423,-43.91252812
125,-28.94585735,-43.41864136
126,-28.61325036,-42.89644574
127,-28.26456468,-42.36254487
128,-27.91227909,-41.83130587
129,-27.5667469,-41.31448426
130,-27.23630577,-40.82133594
131,-26.92755699,-40.35897529
132,-26.64570081,-39.93281234
133,-26.39486305,-39.54697559
134,-26.17838322,-39.20468002
135,-25.99905565,-38.9085308
136,-25.85932611,-38.66076834
137,-25.76145077,-38.46346639
138,-25.70762572,-38.31869645
139,-25.7000942,-38.22867118
140,-25.74123748,-38.19587887
141,-25.8336529,-38.22322062
142,-25.98021957,-38.31416268
143,-26.18414781,-38.4729184
144,-26.44899976,-38.70467834
145,-26.77865461,-39.01591424
146,-27.17716325,-39.41479456
147,-27.64838447,-39.9117682
148,-28.19519235,-40.52040466
149,-28.817855,-41.25862789
150,-29.51085845,-42.15055188
151,-30.2570009,-43.22919523
152,-31.01742765,-44.54023855
153,-31.7182145,-46.14568053
154,-32.24233127,-48.11822428
155,-32.45055459,-50.4724027
156,-32.24859047,-52.78238002
157,-31.65397191,-53.39692234
158,-30.78226141,-51.5296375
159,-29.77083032,-48.96945258
160,-28.72411737,-46.68824619
161,-27.70412054,-44.79910742
162,-26.74175806,-43.23957301
163,-25.84966064,-41.94009327
164,-25.03086625,-40.84726404
165,-24.28379295,-39.92235743
166,-23.60486883,-39.13726851
167,-22.98986149,-38.47128804
168,-22.43452316,-37.90887948
169,-21.93488464,-37.43818908
170,-21.48737258,-37.05004298
171,-21.08884009,-36.73726273
172,-20.73655671,-36.49419064
173,-20.42818143,-36.31635605
174,-20.16173041,-36.20023806
175,-19.93554521,-36.14309626
176,-19.74826419,-36.14285069
177,-19.59879822,-36.19799861
178,-19.48631092,-36.30756028
179,-19.41020347,-36.47104855
180,-19.37010404,-36.68845967
